# Wavelength [m]   SNR per bin for 1h  Input flux
5.128205128205128777e-06 8.795806614639686705e-09 2.074255486384706329e-04
5.391190006574621756e-06 1.415097766398973424e-08 3.041264749179666015e-04
5.667661288963063898e-06 2.177015581210836486e-08 4.263364424751070426e-04
5.958310585832965371e-06 3.242962845313273620e-08 5.786645480304972861e-04
6.263864974850040409e-06 4.730146179354433787e-08 7.690679421020390821e-04
6.585088819714145393e-06 6.655506848227083252e-08 9.861221214395271377e-04
6.922785682263588573e-06 9.377341309919735654e-08 1.266478753450940012e-03
7.277800332636080186e-06 1.300931543220819771e-07 1.602182568268951599e-03
7.651020862514852638e-06 1.713461322839025809e-07 1.925487024508318584e-03
8.043380906746383326e-06 1.777072303243931890e-07 1.823659471627531777e-03
8.455861978887223540e-06 1.929700593667005896e-07 1.810600801492420926e-03
8.889495926522466033e-06 2.230716509445547107e-07 1.916626599698416627e-03
9.345367512497975982e-06 2.744031215455629241e-07 2.163390919867118085e-03
9.824617128523513169e-06 4.019454423753797556e-07 2.915631554667326517e-03
1.032844364793497669e-05 4.766153279515285746e-07 3.191595096354994925e-03
1.085810742475215519e-05 5.338355360392036768e-07 3.313976543065267830e-03
1.141493344653431617e-05 5.875909563352208159e-07 3.399117375690695678e-03
1.200031464892068997e-05 6.317573036340091880e-07 3.426328372409566479e-03
1.261571540014739320e-05 6.395033812354890938e-07 3.274733602783667322e-03
1.326267516425751601e-05 6.763425218851315028e-07 3.295973822105638992e-03
1.394281235216815686e-05 6.867274428707455759e-07 3.212124806697333294e-03
1.465782837022806264e-05 6.725737731022639503e-07 3.046223905548533107e-03
1.540951187639360510e-05 6.473578320932454814e-07 2.864118681794844239e-03
1.619974325467020093e-05 6.039603717301364569e-07 2.632167797349813272e-03
1.703049931901225869e-05 5.578976025182203384e-07 2.413470047422324339e-03
1.790385825844878834e-05 4.905993882735174365e-07 2.120881345862617434e-03
1.882200483580513724e-05 4.250565782343337264e-07 1.846792605462791760e-03
1.964627747835013302e-05 2.679821655679933615e-07 9.960238471496344736e-04
