# Wavelength [m]   SNR per bin for 1h  Input flux
5.128205128205128777e-06 4.389393351878146885e-10 1.035120898051254986e-05
5.391190006574621756e-06 6.254003120213871223e-10 1.344082344158910711e-05
5.667661288963063898e-06 8.806940403769419568e-10 1.724709585560950406e-05
5.958310585832965371e-06 1.274348795129543471e-09 2.273909707696619999e-05
6.263864974850040409e-06 1.740545940604512546e-09 2.829929634128585541e-05
6.585088819714145393e-06 1.988886737156158120e-09 2.946860777496497535e-05
6.922785682263588573e-06 2.268152789930809744e-09 3.063306776487115073e-05
7.277800332636080186e-06 2.474939926015939209e-09 3.048050935195890858e-05
7.651020862514852638e-06 3.012637168314251053e-09 3.385424403659096840e-05
8.043380906746383326e-06 3.833813579956134036e-09 3.934319630482144389e-05
8.455861978887223540e-06 4.887600473211316330e-09 4.585941136702903237e-05
8.889495926522466033e-06 6.257536587241356992e-09 5.376461339057122109e-05
9.345367512497975982e-06 7.781988506130041406e-09 6.135310406585092790e-05
9.824617128523513169e-06 9.494181670593981214e-09 6.886888802530490711e-05
1.032844364793497669e-05 1.107283678866412519e-08 7.414787045813159305e-05
1.085810742475215519e-05 1.188429172501942204e-08 7.377602528487050377e-05
1.141493344653431617e-05 1.213196638560072933e-08 7.018143709399622177e-05
1.200031464892068997e-05 1.206626355465641386e-08 6.544123973618606145e-05
1.261571540014739320e-05 1.177447394178168743e-08 6.029407599638173643e-05
1.326267516425751601e-05 1.172437693657140420e-08 5.713560541952212641e-05
1.394281235216815686e-05 1.231332179748999238e-08 5.759479514651471009e-05
1.465782837022806264e-05 1.274823965865214595e-08 5.773937960415846118e-05
1.540951187639360510e-05 1.324878780566673999e-08 5.861688664202054810e-05
1.619974325467020093e-05 1.384593922797669176e-08 6.034309047671563924e-05
1.703049931901225869e-05 1.393814348082272398e-08 6.029653408104792824e-05
1.790385825844878834e-05 1.437267588204081866e-08 6.213366933195168986e-05
1.882200483580513724e-05 1.455635785732952386e-08 6.324469594814864453e-05
1.964627747835013302e-05 1.252466108364132133e-08 4.655108704563042381e-05
